            angle	Ex=0.000(1g9/2)HSS,KD	Ex=0.000(1g9/2)HSS,BG	Ex=0.000(1g9/2)AC,KD	Ex=0.000(1g9/2)AC,BG	Ex=0.000(1g9/2)DCV,KD	Ex=0.000(1g9/2)DCV,BG	
              0.00          0.265890          0.103030          0.256360          0.138980          0.218120          0.137610
              1.00          0.265700          0.102990          0.256210          0.138970          0.218000          0.137610
              2.00          0.265140          0.102870          0.255810          0.138940          0.217660          0.137620
              3.00          0.264260          0.102690          0.255180          0.138920          0.217150          0.137670
              4.00          0.263130          0.102500          0.254400          0.138970          0.216520          0.137810
              5.00          0.261820          0.102370          0.253560          0.139160          0.215880          0.138110
              6.00          0.260460          0.102350          0.252780          0.139560          0.215320          0.138640
              7.00          0.259160          0.102530          0.252200          0.140250          0.214990          0.139490
              8.00          0.258060          0.102990          0.251950          0.141340          0.215000          0.140750
              9.00          0.257320          0.103820          0.252180          0.142910          0.215500          0.142490
             10.00          0.257070          0.105090          0.253040          0.145040          0.216620          0.144800
             11.00          0.257450          0.106870          0.254650          0.147810          0.218480          0.147750
             12.00          0.258610          0.109240          0.257150          0.151270          0.221190          0.151370
             13.00          0.260660          0.112240          0.260630          0.155470          0.224830          0.155710
             14.00          0.263690          0.115900          0.265170          0.160420          0.229470          0.160760
             15.00          0.267790          0.120250          0.270810          0.166120          0.235130          0.166520
             16.00          0.273000          0.125300          0.277560          0.172540          0.241800          0.172940
             17.00          0.279320          0.131020          0.285400          0.179640          0.249450          0.179970
             18.00          0.286760          0.137390          0.294270          0.187350          0.258000          0.187510
             19.00          0.295240          0.144370          0.304070          0.195590          0.267340          0.195480
             20.00          0.304700          0.151900          0.314660          0.204250          0.277340          0.203770
             21.00          0.315020          0.159950          0.325900          0.213240          0.287820          0.212250
             22.00          0.326080          0.168450          0.337610          0.222460          0.298610          0.220820
             23.00          0.337740          0.177370          0.349600          0.231820          0.309530          0.229380
             24.00          0.349870          0.186680          0.361690          0.241240          0.320400          0.237840
             25.00          0.362340          0.196380          0.373730          0.250680          0.331040          0.246150
             26.00          0.375030          0.206500          0.385560          0.260120          0.341340          0.254290
             27.00          0.387890          0.217100          0.397090          0.269580          0.351200          0.262280
             28.00          0.400880          0.228270          0.408260          0.279140          0.360570          0.270180
             29.00          0.414010          0.240160          0.419080          0.288890          0.369490          0.278110
             30.00          0.427370          0.252930          0.429610          0.299000          0.378020          0.286230
             31.00          0.441090          0.266770          0.439990          0.309640          0.386320          0.294720
             32.00          0.455340          0.281910          0.450390          0.321030          0.394590          0.303820
             33.00          0.470380          0.298580          0.461070          0.333430          0.403090          0.313780
             34.00          0.486450          0.317010          0.472320          0.347060          0.412150          0.324880
             35.00          0.503870          0.337410          0.484450          0.362170          0.422090          0.337370
             36.00          0.522950          0.359990          0.497820          0.379000          0.433280          0.351510
             37.00          0.543990          0.384880          0.512760          0.397740          0.446080          0.367540
             38.00          0.567270          0.412210          0.529610          0.418540          0.460860          0.385630
             39.00          0.593030          0.442000          0.548650          0.441520          0.477920          0.405940
             40.00          0.621470          0.474240          0.570130          0.466710          0.497530          0.428540
             41.00          0.652700          0.508830          0.594240          0.494090          0.519910          0.453470
             42.00          0.686760          0.545620          0.621090          0.523590          0.545190          0.480690
             43.00          0.723610          0.584380          0.650680          0.555060          0.573430          0.510100
             44.00          0.763100          0.624810          0.682980          0.588280          0.604600          0.541530
             45.00          0.805020          0.666590          0.717810          0.623000          0.638580          0.574770
             46.00          0.849050          0.709330          0.754960          0.658930          0.675190          0.609570
             47.00          0.894810          0.752640          0.794100          0.695720          0.714130          0.645650
             48.00          0.941850          0.796110          0.834860          0.733040          0.755080          0.682680
             49.00          0.989670          0.839340          0.876820          0.770530          0.797630          0.720340
             50.00          1.037800          0.881940          0.919490          0.807850          0.841350          0.758320
             51.00          1.085600          0.923570          0.962400          0.844680          0.885780          0.796300
             52.00          1.132600          0.963930          1.005100          0.880740          0.930460          0.834000
             53.00          1.178400          1.002800          1.047000          0.915780          0.974920          0.871180
             54.00          1.222500          1.040000          1.087800          0.949620          1.018700          0.907610
             55.00          1.264500          1.075400          1.127100          0.982100          1.061500          0.943120
             56.00          1.304200          1.109000          1.164600          1.013200          1.102900          0.977590
             57.00          1.341300          1.140800          1.199900          1.042800          1.142600          1.010900
             58.00          1.375700          1.171000          1.233000          1.071000          1.180400          1.043100
             59.00          1.407500          1.199600          1.263700          1.097800          1.216100          1.074100
             60.00          1.436700          1.226900          1.292100          1.123400          1.249800          1.103900
             61.00          1.463400          1.253200          1.318100          1.147800          1.281200          1.132700
             62.00          1.487900          1.278600          1.342000          1.171300          1.310600          1.160400
             63.00          1.510600          1.303400          1.363900          1.194000          1.337900          1.187200
             64.00          1.531600          1.327800          1.384000          1.216100          1.363300          1.213100
             65.00          1.551500          1.352200          1.402600          1.237700          1.387000          1.238200
             66.00          1.570500          1.376600          1.420000          1.258900          1.409200          1.262600
             67.00          1.589000          1.401200          1.436400          1.279800          1.430000          1.286200
             68.00          1.607300          1.426000          1.452000          1.300500          1.449600          1.309200
             69.00          1.625800          1.451200          1.467200          1.320900          1.468200          1.331400
             70.00          1.644600          1.476700          1.482100          1.341100          1.486000          1.352800
             71.00          1.664000          1.502400          1.496900          1.361000          1.503100          1.373500
             72.00          1.684000          1.528200          1.511600          1.380500          1.519600          1.393300
             73.00          1.704700          1.553900          1.526400          1.399400          1.535500          1.412000
             74.00          1.726000          1.579200          1.541200          1.417600          1.550800          1.429700
             75.00          1.747800          1.603900          1.555900          1.434800          1.565600          1.446100
             76.00          1.770000          1.627800          1.570500          1.451000          1.579900          1.461100
             77.00          1.792300          1.650400          1.584800          1.465900          1.593400          1.474700
             78.00          1.814500          1.671600          1.598600          1.479200          1.606200          1.486600
             79.00          1.836100          1.691000          1.611800          1.490900          1.618200          1.496800
             80.00          1.857000          1.708400          1.624100          1.500700          1.629100          1.505200
             81.00          1.876700          1.723500          1.635400          1.508500          1.638900          1.511700
             82.00          1.895000          1.736100          1.645300          1.514300          1.647400          1.516300
             83.00          1.911400          1.746100          1.653700          1.517800          1.654600          1.519000
             84.00          1.925800          1.753300          1.660500          1.519000          1.660300          1.519800
             85.00          1.937800          1.757600          1.665300          1.518100          1.664400          1.518700
             86.00          1.947300          1.759100          1.668300          1.515000          1.666900          1.515800
             87.00          1.954000          1.757800          1.669100          1.509700          1.667700          1.511200
             88.00          1.957900          1.753700          1.667900          1.502400          1.666900          1.505100
             89.00          1.958900          1.747000          1.664600          1.493300          1.664300          1.497600
             90.00          1.957000          1.738000          1.659200          1.482500          1.660200          1.488800
             91.00          1.952300          1.726600          1.651800          1.470200          1.654600          1.478900
             92.00          1.944800          1.713300          1.642500          1.456700          1.647500          1.468100
             93.00          1.934800          1.698300          1.631400          1.442100          1.639000          1.456500
             94.00          1.922300          1.681900          1.618800          1.426600          1.629400          1.444500
             95.00          1.907800          1.664300          1.604800          1.410600          1.618800          1.432100
             96.00          1.891300          1.645900          1.589700          1.394300          1.607200          1.419500
             97.00          1.873300          1.626900          1.573600          1.377800          1.595000          1.406900
             98.00          1.854000          1.607700          1.556800          1.361500          1.582200          1.394400
             99.00          1.833800          1.588500          1.539600          1.345400          1.569100          1.382200
            100.00          1.812800          1.569500          1.522100          1.329800          1.555700          1.370400
            101.00          1.791600          1.551000          1.504600          1.314800          1.542300          1.359100
            102.00          1.770200          1.533200          1.487200          1.300500          1.529000          1.348300
            103.00          1.749100          1.516200          1.470200          1.287000          1.515900          1.338100
            104.00          1.728400          1.500100          1.453800          1.274400          1.503200          1.328600
            105.00          1.708400          1.485200          1.437900          1.262700          1.490900          1.319700
            106.00          1.689200          1.471300          1.422900          1.252000          1.479000          1.311400
            107.00          1.671100          1.458700          1.408700          1.242200          1.467800          1.303700
            108.00          1.654100          1.447200          1.395400          1.233300          1.457100          1.296600
            109.00          1.638200          1.436800          1.383100          1.225300          1.447000          1.290000
            110.00          1.623700          1.427500          1.371700          1.218100          1.437500          1.283900
            111.00          1.610400          1.419300          1.361300          1.211500          1.428600          1.278100
            112.00          1.598400          1.412000          1.351700          1.205500          1.420200          1.272600
            113.00          1.587600          1.405400          1.343000          1.200100          1.412400          1.267400
            114.00          1.577900          1.399600          1.335100          1.195000          1.405000          1.262200
            115.00          1.569400          1.394400          1.327900          1.190200          1.398000          1.257100
            116.00          1.561800          1.389600          1.321300          1.185600          1.391300          1.252000
            117.00          1.555100          1.385100          1.315200          1.181100          1.384900          1.246900
            118.00          1.549100          1.380800          1.309500          1.176500          1.378700          1.241500
            119.00          1.543700          1.376500          1.304200          1.171900          1.372700          1.235900
            120.00          1.538700          1.372200          1.299000          1.167000          1.366700          1.230100
            121.00          1.534100          1.367800          1.294000          1.161900          1.360700          1.224000
            122.00          1.529800          1.363000          1.288900          1.156500          1.354600          1.217500
            123.00          1.525500          1.358000          1.283900          1.150700          1.348500          1.210700
            124.00          1.521200          1.352600          1.278700          1.144500          1.342200          1.203600
            125.00          1.516700          1.346700          1.273300          1.137800          1.335700          1.196100
            126.00          1.512100          1.340300          1.267600          1.130800          1.329000          1.188200
            127.00          1.507100          1.333500          1.261700          1.123300          1.322200          1.180100
            128.00          1.501900          1.326100          1.255500          1.115500          1.315000          1.171600
            129.00          1.496200          1.318200          1.248900          1.107200          1.307700          1.162900
            130.00          1.490000          1.309800          1.242000          1.098600          1.300100          1.153900
            131.00          1.483500          1.300900          1.234800          1.089600          1.292300          1.144700
            132.00          1.476400          1.291600          1.227300          1.080400          1.284300          1.135400
            133.00          1.468900          1.281900          1.219400          1.071000          1.276100          1.126000
            134.00          1.461000          1.271900          1.211300          1.061400          1.267800          1.116500
            135.00          1.452600          1.261500          1.202900          1.051600          1.259300          1.107000
            136.00          1.443800          1.250900          1.194300          1.041800          1.250800          1.097500
            137.00          1.434700          1.240200          1.185500          1.031900          1.242200          1.088100
            138.00          1.425300          1.229300          1.176600          1.022100          1.233600          1.078800
            139.00          1.415600          1.218400          1.167700          1.012300          1.225100          1.069600
            140.00          1.405700          1.207400          1.158700          1.002700          1.216600          1.060700
            141.00          1.395700          1.196600          1.149700          0.993200          1.208200          1.051900
            142.00          1.385600          1.185800          1.140700          0.983940          1.200000          1.043400
            143.00          1.375400          1.175200          1.131900          0.974920          1.191900          1.035200
            144.00          1.365300          1.164800          1.123200          0.966180          1.184000          1.027200
            145.00          1.355200          1.154600          1.114700          0.957740          1.176400          1.019600
            146.00          1.345300          1.144800          1.106400          0.949620          1.169000          1.012300
            147.00          1.335500          1.135200          1.098400          0.941840          1.161900          1.005300
            148.00          1.326000          1.126000          1.090600          0.934420          1.155000          0.998710
            149.00          1.316700          1.117100          1.083100          0.927360          1.148500          0.992420
            150.00          1.307600          1.108700          1.076000          0.920660          1.142400          0.986470
            151.00          1.298900          1.100600          1.069100          0.914340          1.136500          0.980870
            152.00          1.290500          1.092900          1.062700          0.908380          1.131000          0.975590
            153.00          1.282500          1.085600          1.056500          0.902780          1.125800          0.970640
            154.00          1.274800          1.078700          1.050700          0.897540          1.120900          0.966010
            155.00          1.267500          1.072200          1.045300          0.892640          1.116300          0.961680
