            angle	Ex=2.938(p:Menet,d:DCV)	Ex=2.938(p:KD,d:DCV)	Ex=2.938(p:Varmar,d:DCV)	Ex=2.938(p:BG,d:DCV(re))	Ex=2.938(p:Menet,d:LH)	Ex=2.938(p:Menet,d:DCV(nonREL))	Ex=2.938(p:Menet,d:AC)	Ex=2.938(p:Menet,d:Custom)	
             5.00	         0.498930	         0.510090	         0.461090	         0.398640	         0.517590	         0.496220	         0.532580	         0.411450	
             5.10	         0.497690	         0.509360	         0.460420	         0.398110	         0.516230	         0.494950	         0.531340	         0.410730	
             5.20	         0.496470	         0.508660	         0.459780	         0.397610	         0.514880	         0.493700	         0.530120	         0.410030	
             5.30	         0.495280	         0.507990	         0.459180	         0.397150	         0.513560	         0.492470	         0.528930	         0.409330	
             5.40	         0.494110	         0.507360	         0.458620	         0.396740	         0.512240	         0.491270	         0.527760	         0.408660	
             5.50	         0.492980	         0.506770	         0.458090	         0.396360	         0.510950	         0.490100	         0.526630	         0.408000	
             5.60	         0.491880	         0.506230	         0.457610	         0.396040	         0.509680	         0.488970	         0.525530	         0.407360	
             5.70	         0.490810	         0.505720	         0.457180	         0.395750	         0.508430	         0.487860	         0.524470	         0.406740	
             5.80	         0.489780	         0.505270	         0.456790	         0.395520	         0.507210	         0.486800	         0.523440	         0.406140	
             5.90	         0.488790	         0.504870	         0.456460	         0.395340	         0.506020	         0.485770	         0.522450	         0.405560	
             6.00	         0.487840	         0.504510	         0.456170	         0.395210	         0.504850	         0.484780	         0.521500	         0.405010	
             6.10	         0.486940	         0.504210	         0.455940	         0.395140	         0.503720	         0.483840	         0.520600	         0.404480	
             6.20	         0.486080	         0.503970	         0.455770	         0.395130	         0.502620	         0.482950	         0.519750	         0.403980	
             6.30	         0.485270	         0.503790	         0.455650	         0.395180	         0.501560	         0.482100	         0.518940	         0.403500	
             6.40	         0.484520	         0.503670	         0.455600	         0.395300	         0.500530	         0.481310	         0.518190	         0.403060	
             6.50	         0.483820	         0.503610	         0.455610	         0.395470	         0.499540	         0.480570	         0.517490	         0.402640	
             6.60	         0.483170	         0.503620	         0.455690	         0.395720	         0.498600	         0.479880	         0.516840	         0.402260	
             6.70	         0.482590	         0.503700	         0.455830	         0.396030	         0.497700	         0.479250	         0.516260	         0.401910	
             6.80	         0.482060	         0.503840	         0.456050	         0.396420	         0.496840	         0.478680	         0.515740	         0.401590	
             6.90	         0.481600	         0.504060	         0.456330	         0.396880	         0.496030	         0.478180	         0.515280	         0.401310	
             7.00	         0.481210	         0.504360	         0.456700	         0.397420	         0.495270	         0.477740	         0.514880	         0.401060	
             7.10	         0.480880	         0.504730	         0.457140	         0.398040	         0.494560	         0.477370	         0.514550	         0.400850	
             7.20	         0.480620	         0.505180	         0.457650	         0.398730	         0.493900	         0.477060	         0.514290	         0.400680	
             7.30	         0.480430	         0.505720	         0.458250	         0.399510	         0.493300	         0.476830	         0.514110	         0.400550	
             7.40	         0.480320	         0.506330	         0.458940	         0.400380	         0.492750	         0.476670	         0.514000	         0.400460	
             7.50	         0.480290	         0.507040	         0.459710	         0.401330	         0.492260	         0.476590	         0.513960	         0.400410	
             7.60	         0.480330	         0.507830	         0.460560	         0.402370	         0.491840	         0.476580	         0.514000	         0.400400	
             7.70	         0.480450	         0.508710	         0.461510	         0.403500	         0.491470	         0.476660	         0.514130	         0.400440	
             7.80	         0.480660	         0.509680	         0.462540	         0.404720	         0.491160	         0.476810	         0.514330	         0.400520	
             7.90	         0.480950	         0.510740	         0.463670	         0.406030	         0.490920	         0.477050	         0.514620	         0.400650	
             8.00	         0.481330	         0.511900	         0.464900	         0.407450	         0.490750	         0.477380	         0.515000	         0.400830	
             8.10	         0.481790	         0.513160	         0.466220	         0.408960	         0.490640	         0.477790	         0.515460	         0.401050	
             8.20	         0.482350	         0.514520	         0.467640	         0.410570	         0.490610	         0.478300	         0.516020	         0.401320	
             8.30	         0.483000	         0.515980	         0.469150	         0.412280	         0.490640	         0.478890	         0.516660	         0.401640	
             8.40	         0.483740	         0.517540	         0.470780	         0.414090	         0.490750	         0.479580	         0.517400	         0.402010	
             8.50	         0.484570	         0.519210	         0.472500	         0.416010	         0.490930	         0.480360	         0.518240	         0.402430	
             8.60	         0.485510	         0.520980	         0.474330	         0.418030	         0.491180	         0.481240	         0.519170	         0.402900	
             8.70	         0.486540	         0.522860	         0.476270	         0.420160	         0.491510	         0.482220	         0.520200	         0.403430	
             8.80	         0.487680	         0.524850	         0.478310	         0.422400	         0.491920	         0.483300	         0.521330	         0.404010	
             8.90	         0.488910	         0.526950	         0.480470	         0.424750	         0.492410	         0.484480	         0.522560	         0.404640	
             9.00	         0.490250	         0.529160	         0.482730	         0.427220	         0.492980	         0.485760	         0.523900	         0.405320	
             9.10	         0.491700	         0.531480	         0.485110	         0.429790	         0.493620	         0.487140	         0.525340	         0.406060	
             9.20	         0.493250	         0.533920	         0.487600	         0.432480	         0.494350	         0.488630	         0.526890	         0.406860	
             9.30	         0.494900	         0.536480	         0.490210	         0.435290	         0.495170	         0.490230	         0.528540	         0.407710	
             9.40	         0.496670	         0.539150	         0.492930	         0.438210	         0.496060	         0.491940	         0.530300	         0.408620	
             9.50	         0.498550	         0.541940	         0.495770	         0.441250	         0.497050	         0.493750	         0.532170	         0.409590	
             9.60	         0.500540	         0.544850	         0.498730	         0.444400	         0.498110	         0.495680	         0.534150	         0.410610	
             9.70	         0.502640	         0.547890	         0.501800	         0.447680	         0.499270	         0.497720	         0.536250	         0.411690	
             9.80	         0.504850	         0.551040	         0.505000	         0.451080	         0.500510	         0.499870	         0.538450	         0.412820	
             9.90	         0.507180	         0.554310	         0.508310	         0.454600	         0.501840	         0.502130	         0.540770	         0.414020	
            10.00	         0.509620	         0.557710	         0.511750	         0.458240	         0.503260	         0.504510	         0.543210	         0.415270	
            10.10	         0.512180	         0.561230	         0.515310	         0.462000	         0.504770	         0.507000	         0.545760	         0.416590	
            10.20	         0.514850	         0.564880	         0.519000	         0.465890	         0.506370	         0.509610	         0.548420	         0.417960	
            10.30	         0.517650	         0.568650	         0.522800	         0.469900	         0.508060	         0.512340	         0.551210	         0.419390	
            10.40	         0.520560	         0.572550	         0.526740	         0.474030	         0.509840	         0.515180	         0.554110	         0.420870	
            10.50	         0.523590	         0.576570	         0.530790	         0.478290	         0.511710	         0.518140	         0.557130	         0.422420	
            10.60	         0.526740	         0.580720	         0.534970	         0.482670	         0.513670	         0.521220	         0.560270	         0.424030	
            10.70	         0.530010	         0.585000	         0.539280	         0.487180	         0.515730	         0.524420	         0.563520	         0.425690	
            10.80	         0.533390	         0.589400	         0.543710	         0.491820	         0.517870	         0.527740	         0.566900	         0.427410	
            10.90	         0.536900	         0.593940	         0.548270	         0.496580	         0.520110	         0.531180	         0.570400	         0.429190	
            11.00	         0.540530	         0.598600	         0.552950	         0.501470	         0.522450	         0.534740	         0.574010	         0.431030	
            11.10	         0.544280	         0.603380	         0.557760	         0.506480	         0.524870	         0.538410	         0.577750	         0.432930	
            11.20	         0.548160	         0.608300	         0.562700	         0.511620	         0.527390	         0.542210	         0.581610	         0.434890	
            11.30	         0.552150	         0.613350	         0.567760	         0.516880	         0.530000	         0.546130	         0.585580	         0.436900	
            11.40	         0.556260	         0.618520	         0.572950	         0.522270	         0.532700	         0.550170	         0.589680	         0.438970	
            11.50	         0.560500	         0.623820	         0.578260	         0.527790	         0.535490	         0.554330	         0.593900	         0.441100	
            11.60	         0.564850	         0.629240	         0.583700	         0.533430	         0.538380	         0.558610	         0.598230	         0.443280	
            11.70	         0.569330	         0.634800	         0.589260	         0.539190	         0.541360	         0.563010	         0.602690	         0.445520	
            11.80	         0.573920	         0.640480	         0.594950	         0.545080	         0.544420	         0.567530	         0.607270	         0.447810	
            11.90	         0.578640	         0.646280	         0.600760	         0.551090	         0.547580	         0.572160	         0.611960	         0.450160	
            12.00	         0.583470	         0.652210	         0.606700	         0.557230	         0.550830	         0.576920	         0.616780	         0.452560	
            12.10	         0.588420	         0.658270	         0.612760	         0.563490	         0.554170	         0.581790	         0.621710	         0.455020	
            12.20	         0.593500	         0.664450	         0.618940	         0.569870	         0.557600	         0.586790	         0.626760	         0.457530	
            12.30	         0.598690	         0.670760	         0.625240	         0.576370	         0.561120	         0.591900	         0.631930	         0.460090	
            12.40	         0.603990	         0.677180	         0.631660	         0.582990	         0.564720	         0.597120	         0.637210	         0.462700	
            12.50	         0.609420	         0.683730	         0.638200	         0.589730	         0.568420	         0.602460	         0.642610	         0.465360	
            12.60	         0.614950	         0.690400	         0.644860	         0.596590	         0.572200	         0.607920	         0.648120	         0.468080	
            12.70	         0.620610	         0.697190	         0.651640	         0.603560	         0.576060	         0.613490	         0.653740	         0.470840	
            12.80	         0.626370	         0.704100	         0.658530	         0.610650	         0.580010	         0.619170	         0.659480	         0.473650	
            12.90	         0.632250	         0.711130	         0.665540	         0.617860	         0.584040	         0.624970	         0.665330	         0.476500	
            13.00	         0.638240	         0.718270	         0.672670	         0.625180	         0.588160	         0.630870	         0.671290	         0.479410	
            13.10	         0.644340	         0.725530	         0.679900	         0.632610	         0.592350	         0.636890	         0.677360	         0.482350	
            13.20	         0.650550	         0.732900	         0.687250	         0.640150	         0.596630	         0.643010	         0.683540	         0.485340	
            13.30	         0.656870	         0.740390	         0.694710	         0.647800	         0.600980	         0.649240	         0.689830	         0.488380	
            13.40	         0.663290	         0.747980	         0.702280	         0.655560	         0.605420	         0.655580	         0.696220	         0.491450	
            13.50	         0.669820	         0.755690	         0.709950	         0.663430	         0.609930	         0.662020	         0.702710	         0.494570	
            13.60	         0.676450	         0.763500	         0.717730	         0.671400	         0.614510	         0.668560	         0.709310	         0.497730	
            13.70	         0.683190	         0.771420	         0.725610	         0.679470	         0.619170	         0.675210	         0.716010	         0.500920	
            13.80	         0.690020	         0.779450	         0.733600	         0.687650	         0.623900	         0.681950	         0.722800	         0.504150	
            13.90	         0.696960	         0.787570	         0.741680	         0.695920	         0.628710	         0.688800	         0.729700	         0.507420	
            14.00	         0.703990	         0.795800	         0.749870	         0.704290	         0.633580	         0.695740	         0.736690	         0.510720	
            14.10	         0.711110	         0.804130	         0.758150	         0.712760	         0.638520	         0.702770	         0.743770	         0.514060	
            14.20	         0.718330	         0.812550	         0.766520	         0.721320	         0.643530	         0.709900	         0.750950	         0.517420	
            14.30	         0.725650	         0.821070	         0.774990	         0.729970	         0.648600	         0.717120	         0.758220	         0.520820	
            14.40	         0.733050	         0.829680	         0.783540	         0.738710	         0.653730	         0.724430	         0.765580	         0.524240	
            14.50	         0.740530	         0.838380	         0.792190	         0.747540	         0.658930	         0.731820	         0.773020	         0.527700	
            14.60	         0.748110	         0.847170	         0.800920	         0.756450	         0.664190	         0.739300	         0.780550	         0.531180	
            14.70	         0.755770	         0.856050	         0.809740	         0.765450	         0.669500	         0.746860	         0.788160	         0.534680	
            14.80	         0.763510	         0.865010	         0.818640	         0.774530	         0.674870	         0.754510	         0.795850	         0.538210	
            14.90	         0.771330	         0.874050	         0.827610	         0.783690	         0.680290	         0.762230	         0.803610	         0.541760	
            15.00	         0.779220	         0.883170	         0.836670	         0.792920	         0.685770	         0.770030	         0.811460	         0.545330	
            15.10	         0.787200	         0.892370	         0.845790	         0.802220	         0.691290	         0.777910	         0.819380	         0.548920	
            15.20	         0.795240	         0.901650	         0.855000	         0.811600	         0.696860	         0.785850	         0.827370	         0.552520	
            15.30	         0.803350	         0.910990	         0.864270	         0.821050	         0.702480	         0.793870	         0.835430	         0.556140	
            15.40	         0.811540	         0.920410	         0.873600	         0.830560	         0.708150	         0.801960	         0.843550	         0.559780	
            15.50	         0.819790	         0.929890	         0.883000	         0.840130	         0.713850	         0.810100	         0.851740	         0.563420	
            15.60	         0.828100	         0.939440	         0.892470	         0.849770	         0.719600	         0.818320	         0.859990	         0.567080	
            15.70	         0.836470	         0.949050	         0.901990	         0.859460	         0.725380	         0.826590	         0.868300	         0.570750	
            15.80	         0.844900	         0.958720	         0.911580	         0.869220	         0.731200	         0.834920	         0.876670	         0.574420	
            15.90	         0.853380	         0.968440	         0.921200	         0.879010	         0.737050	         0.843300	         0.885090	         0.578100	
            16.00	         0.861920	         0.978220	         0.930890	         0.888870	         0.742930	         0.851740	         0.893560	         0.581780	
            16.10	         0.870510	         0.988050	         0.940620	         0.898770	         0.748840	         0.860220	         0.902080	         0.585470	
            16.20	         0.879140	         0.997930	         0.950400	         0.908710	         0.754780	         0.868760	         0.910650	         0.589150	
            16.30	         0.887830	         1.007800	         0.960220	         0.918700	         0.760740	         0.877340	         0.919260	         0.592840	
            16.40	         0.896550	         1.017800	         0.970080	         0.928720	         0.766730	         0.885960	         0.927910	         0.596520	
            16.50	         0.905310	         1.027800	         0.979980	         0.938780	         0.772730	         0.894610	         0.936600	         0.600200	
            16.60	         0.914110	         1.037900	         0.989910	         0.948870	         0.778760	         0.903310	         0.945330	         0.603870	
            16.70	         0.922940	         1.047900	         0.999880	         0.959000	         0.784790	         0.912040	         0.954080	         0.607540	
            16.80	         0.931810	         1.058000	         1.009900	         0.969150	         0.790840	         0.920800	         0.962870	         0.611190	
            16.90	         0.940700	         1.068200	         1.019900	         0.979320	         0.796900	         0.929580	         0.971680	         0.614830	
            17.00	         0.949610	         1.078300	         1.029900	         0.989510	         0.802970	         0.938400	         0.980520	         0.618460	
