            angle	Ex=0.000(d:DCV,3He:XHS)	Ex=0.000(d:DCV,3He:LLC)	Ex=0.000(d:HSS,3He:LLC)	Ex=0.298(d:DCV,3He:XHS)	Ex=0.298(d:DCV,3He:LLC)	Ex=0.298(d:HSS,3He:LLC)	
              0.00          0.466420          0.473200          0.554960          0.423230          0.434670          0.511340
              1.00          0.515520          0.529760          0.609230          0.471580          0.490310          0.564780
              2.00          0.652650          0.688300          0.761070          0.606760          0.646390          0.714430
              3.00          0.849640          0.917850          0.979960          0.801350          0.872790          0.930600
              4.00          1.066700          1.174500          1.222700          1.016500          1.126700          1.171200
              5.00          1.260900          1.410600          1.442500          1.210500          1.361600          1.390500
              6.00          1.395600          1.584600          1.598800          1.347100          1.536800          1.548700
              7.00          1.446500          1.668500          1.664600          1.402300          1.624400          1.619000
              8.00          1.406000          1.651900          1.630400          1.368100          1.613700          1.591600
              9.00          1.282600          1.542100          1.504400          1.252400          1.511500          1.473800
             10.00          1.097600          1.360700          1.308900          1.075400          1.338200          1.286900
             11.00          0.879610          1.137900          1.074300          0.864860          1.123000          1.060200
             12.00          0.658460          0.905860          0.832930          0.649780          0.897220          0.825340
             13.00          0.459870          0.692960          0.613140          0.455500          0.688880          0.610090
             14.00          0.301840          0.519780          0.435180          0.299980          0.518400          0.434650
             15.00          0.193080          0.397040          0.309360          0.192140          0.396720          0.309610
             16.00          0.133320          0.325780          0.236310          0.132170          0.325350          0.236060
             17.00          0.115200          0.299130          0.208720          0.113230          0.297960          0.207310
             18.00          0.126900          0.305010          0.214260          0.124000          0.303010          0.211560
             19.00          0.155030          0.329230          0.238530          0.151450          0.326690          0.234870
             20.00          0.187050          0.358100          0.267840          0.183280          0.355580          0.263820
             21.00          0.213100          0.380550          0.291220          0.209650          0.378670          0.287510
             22.00          0.226890          0.389230          0.301510          0.224210          0.388520          0.298690
             23.00          0.225850          0.380830          0.295610          0.224240          0.381640          0.294110
             24.00          0.210680          0.355710          0.274050          0.210220          0.358150          0.274040
             25.00          0.184390          0.316940          0.240060          0.184980          0.320910          0.241480
             26.00          0.151290          0.269320          0.198450          0.152690          0.274520          0.201030
             27.00          0.116020          0.218170          0.154470          0.117900          0.224190          0.157850
             28.00          0.082692          0.168510          0.112940          0.084709          0.174890          0.116690
             29.00          0.054402          0.124330          0.077569          0.056250          0.130630          0.081269
             30.00          0.032965          0.088254          0.050640          0.034415          0.094124          0.053956
             31.00          0.018936          0.061488          0.032973          0.019853          0.066680          0.035673
             32.00          0.011808          0.043955          0.024112          0.012153          0.048334          0.026080
             33.00          0.010329          0.034597          0.022653          0.010142          0.038135          0.023883
             34.00          0.012846          0.031741          0.026639          0.012229          0.034497          0.027211
             35.00          0.017639          0.033464          0.033943          0.016725          0.035554          0.033997
             36.00          0.023172          0.037901          0.042589          0.022100          0.039471          0.042286
             37.00          0.028265          0.043470          0.050972          0.027158          0.044667          0.050479
             38.00          0.032165          0.049001          0.057987          0.031119          0.049955          0.057442
             39.00          0.034547          0.053775          0.063050          0.033622          0.054585          0.062557
             40.00          0.035444          0.057487          0.066044          0.034664          0.058218          0.065665
             41.00          0.035149          0.060166          0.067217          0.034508          0.060847          0.066973
             42.00          0.034096          0.062062          0.067048          0.033566          0.062696          0.066931
             43.00          0.032757          0.063532          0.066117          0.032298          0.064104          0.066095
             44.00          0.031552          0.064943          0.064988          0.031124          0.065429          0.065018
             45.00          0.030793          0.066592          0.064124          0.030360          0.066969          0.064164
             46.00          0.030653          0.068664          0.063834          0.030190          0.068916          0.063848
             47.00          0.031166          0.071212          0.064254          0.030662          0.071335          0.064220
             48.00          0.032242          0.074165          0.065356          0.031701          0.074169          0.065267
             49.00          0.033709          0.077355          0.066981          0.033143          0.077260          0.066846
             50.00          0.035340          0.080550          0.068881          0.034773          0.080388          0.068721
             51.00          0.036905          0.083498          0.070770          0.036361          0.083303          0.070612
             52.00          0.038193          0.085959          0.072365          0.037698          0.085769          0.072240
             53.00          0.039042          0.087741          0.073424          0.038618          0.087588          0.073362
             54.00          0.039352          0.088712          0.073773          0.039014          0.088622          0.073798
             55.00          0.039088          0.088815          0.073316          0.038844          0.088807          0.073443
             56.00          0.038274          0.088065          0.072039          0.038126          0.088148          0.072275
             57.00          0.036984          0.086536          0.069999          0.036927          0.086711          0.070342
             58.00          0.035325          0.084354          0.067311          0.035348          0.084614          0.067750
             59.00          0.033420          0.081673          0.064129          0.033511          0.082006          0.064647
             60.00          0.031397          0.078657          0.060623          0.031539          0.079049          0.061200
             61.00          0.029367          0.075465          0.056966          0.029548          0.075899          0.057578
             62.00          0.027425          0.072238          0.053309          0.027631          0.072699          0.053936
             63.00          0.025638          0.069088          0.049781          0.025858          0.069563          0.050404
             64.00          0.024042          0.066094          0.046475          0.024270          0.066572          0.047078
             65.00          0.022651          0.063301          0.043447          0.022881          0.063775          0.044021
             66.00          0.021455          0.060723          0.040721          0.021684          0.061189          0.041259
             67.00          0.020426          0.058349          0.038290          0.020653          0.058804          0.038792
             68.00          0.019527          0.056147          0.036127          0.019754          0.056593          0.036595
             69.00          0.018718          0.054076          0.034187          0.018945          0.054515          0.034626
             70.00          0.017957          0.052089          0.032421          0.018185          0.052524          0.032837
             71.00          0.017209          0.050142          0.030778          0.017440          0.050575          0.031176
             72.00          0.016447          0.048197          0.029209          0.016682          0.048630          0.029597
             73.00          0.015654          0.046224          0.027679          0.015893          0.046661          0.028061
             74.00          0.014820          0.044206          0.026158          0.015062          0.044648          0.026537
             75.00          0.013946          0.042139          0.024630          0.014191          0.042585          0.025008
             76.00          0.013040          0.040025          0.023091          0.013287          0.040477          0.023468
             77.00          0.012113          0.037879          0.021543          0.012361          0.038335          0.021917
             78.00          0.011183          0.035721          0.019998          0.011429          0.036178          0.020367
             79.00          0.010267          0.033573          0.018471          0.010509          0.034031          0.018832
             80.00          0.009380          0.031462          0.016980          0.009616          0.031916          0.017330
             81.00          0.008537          0.029411          0.015544          0.008766          0.029859          0.015879
             82.00          0.007749          0.027441          0.014180          0.007970          0.027880          0.014497
             83.00          0.007026          0.025571          0.012902          0.007236          0.025998          0.013199
             84.00          0.006370          0.023814          0.011719          0.006570          0.024226          0.011995
             85.00          0.005784          0.022178          0.010640          0.005972          0.022572          0.010894
             86.00          0.005265          0.020666          0.009665          0.005440          0.021040          0.009897
             87.00          0.004809          0.019277          0.008793          0.004971          0.019629          0.009003
             88.00          0.004409          0.018006          0.008020          0.004559          0.018336          0.008210
             89.00          0.004059          0.016845          0.007338          0.004197          0.017152          0.007508
             90.00          0.003751          0.015784          0.006737          0.003878          0.016069          0.006890
             91.00          0.003477          0.014812          0.006207          0.003593          0.015076          0.006345
             92.00          0.003230          0.013918          0.005738          0.003337          0.014162          0.005862
             93.00          0.003004          0.013090          0.005319          0.003103          0.013316          0.005430
             94.00          0.002794          0.012317          0.004940          0.002887          0.012528          0.005040
             95.00          0.002596          0.011590          0.004592          0.002683          0.011789          0.004683
             96.00          0.002407          0.010902          0.004268          0.002489          0.011091          0.004352
             97.00          0.002225          0.010246          0.003962          0.002303          0.010427          0.004040
             98.00          0.002049          0.009617          0.003671          0.002124          0.009792          0.003743
             99.00          0.001879          0.009012          0.003392          0.001951          0.009183          0.003459
            100.00          0.001716          0.008430          0.003123          0.001785          0.008597          0.003186
            101.00          0.001559          0.007870          0.002864          0.001626          0.008034          0.002924
            102.00          0.001411          0.007333          0.002616          0.001475          0.007494          0.002672
            103.00          0.001272          0.006819          0.002380          0.001333          0.006977          0.002433
            104.00          0.001143          0.006331          0.002157          0.001200          0.006484          0.002206
            105.00          0.001025          0.005869          0.001950          0.001079          0.006017          0.001995
            106.00          0.000918          0.005436          0.001758          0.000968          0.005577          0.001800
            107.00          0.000823          0.005032          0.001584          0.000868          0.005166          0.001623
            108.00          0.000738          0.004659          0.001429          0.000779          0.004784          0.001463
            109.00          0.000664          0.004315          0.001291          0.000700          0.004431          0.001321
            110.00          0.000599          0.004001          0.001170          0.000632          0.004107          0.001196
            111.00          0.000544          0.003715          0.001066          0.000572          0.003812          0.001088
            112.00          0.000496          0.003456          0.000977          0.000521          0.003544          0.000995
            113.00          0.000454          0.003221          0.000901          0.000477          0.003300          0.000915
            114.00          0.000418          0.003008          0.000836          0.000439          0.003080          0.000847
            115.00          0.000387          0.002815          0.000781          0.000405          0.002879          0.000789
            116.00          0.000358          0.002638          0.000732          0.000375          0.002697          0.000738
            117.00          0.000332          0.002475          0.000689          0.000348          0.002529          0.000693
            118.00          0.000308          0.002323          0.000649          0.000323          0.002375          0.000651
            119.00          0.000285          0.002181          0.000612          0.000299          0.002231          0.000613
            120.00          0.000262          0.002048          0.000576          0.000277          0.002096          0.000576
            121.00          0.000241          0.001921          0.000540          0.000255          0.001969          0.000541
            122.00          0.000221          0.001801          0.000506          0.000234          0.001848          0.000506
            123.00          0.000201          0.001686          0.000471          0.000214          0.001733          0.000472
            124.00          0.000182          0.001576          0.000438          0.000195          0.001623          0.000439
            125.00          0.000164          0.001472          0.000405          0.000176          0.001518          0.000407
            126.00          0.000147          0.001373          0.000374          0.000159          0.001419          0.000376
            127.00          0.000132          0.001280          0.000345          0.000142          0.001324          0.000347
            128.00          0.000118          0.001193          0.000318          0.000127          0.001236          0.000320
            129.00          0.000105          0.001112          0.000293          0.000114          0.001152          0.000295
            130.00          0.000094          0.001036          0.000271          0.000102          0.001074          0.000273
            131.00          0.000084          0.000966          0.000252          0.000091          0.001001          0.000253
            132.00          0.000076          0.000902          0.000236          0.000081          0.000934          0.000236
            133.00          0.000069          0.000843          0.000222          0.000073          0.000871          0.000222
            134.00          0.000063          0.000788          0.000210          0.000066          0.000814          0.000210
            135.00          0.000057          0.000738          0.000200          0.000061          0.000762          0.000199
            136.00          0.000053          0.000693          0.000192          0.000056          0.000713          0.000190
            137.00          0.000049          0.000651          0.000184          0.000052          0.000669          0.000182
            138.00          0.000046          0.000612          0.000178          0.000048          0.000629          0.000175
            139.00          0.000043          0.000577          0.000172          0.000045          0.000592          0.000169
            140.00          0.000041          0.000544          0.000166          0.000043          0.000558          0.000163
            141.00          0.000038          0.000514          0.000160          0.000041          0.000527          0.000157
            142.00          0.000036          0.000486          0.000154          0.000038          0.000499          0.000151
            143.00          0.000034          0.000460          0.000148          0.000036          0.000474          0.000146
            144.00          0.000032          0.000437          0.000142          0.000034          0.000450          0.000140
            145.00          0.000029          0.000415          0.000136          0.000032          0.000429          0.000134
            146.00          0.000027          0.000395          0.000130          0.000030          0.000409          0.000129
            147.00          0.000025          0.000376          0.000124          0.000028          0.000391          0.000123
            148.00          0.000023          0.000358          0.000118          0.000025          0.000373          0.000118
            149.00          0.000021          0.000341          0.000113          0.000023          0.000356          0.000112
            150.00          0.000019          0.000324          0.000108          0.000021          0.000340          0.000107
            151.00          0.000017          0.000307          0.000102          0.000019          0.000323          0.000102
            152.00          0.000015          0.000290          0.000098          0.000017          0.000306          0.000098
            153.00          0.000013          0.000274          0.000093          0.000015          0.000289          0.000093
            154.00          0.000012          0.000257          0.000088          0.000013          0.000271          0.000089
            155.00          0.000010          0.000240          0.000084          0.000011          0.000254          0.000085
